Time	Propeller Total Thrust	Aircraft Simulation Position Z	Aircraft Simulation Global Velocity Y	Aircraft Simulation Airspeed
0.1	-3.312804E-05	5.010668	-0.03652851	0.05481004
0.2	0.481988	5.010755	0.01495779	0.008133682
0.3	1.80059	5.010963	0.006790373	0.01036458
0.4	3.300806	5.011045	0.002550008	0.00739393
0.5	4.908396	5.01115	0.00246097	0.005277012
0.6	6.924054	5.011299	0.001367681	0.004388121
0.7	9.081003	5.011525	0.0008700285	0.004638037
0.8	11.33422	5.01246	0.0007673837	0.01806493
0.9	13.59294	5.016544	0.001045933	0.06825579
1	15.95534	5.028001	0.002046514	0.1631762
1.1	18.11436	5.051486	0.003468703	0.3058367
1.2	20.54079	5.091727	0.005500624	0.4953477
1.3	22.72464	5.153338	0.007789295	0.7307319
1.4	24.76328	5.240902	0.01089509	1.011118
1.5	27.00982	5.358785	0.01448013	1.334166
1.6	28.81958	5.511148	0.01857358	1.697711
1.7	30.66002	5.701932	0.02265711	2.100394
1.8	32.38903	5.934972	0.02767302	2.540329
1.9	33.94928	6.213854	0.03282298	3.014328
2	35.13828	6.541813	0.03873774	3.519821
2.1	35.33602	6.92164	0.04405515	4.04646
2.2	34.45435	7.353701	0.05007915	4.562037
2.3	33.60905	7.836511	0.055521	5.062763
2.4	32.80153	8.36862	0.06112554	5.549417
2.5	32.03723	8.948672	0.06654716	6.023132
2.6	31.31245	9.575417	0.0720381	6.484728
2.7	30.62058	10.24768	0.07697786	6.935267
2.8	29.95888	10.96439	0.08216252	7.375359
2.9	29.32367	11.7245	0.08735323	7.805655
3	28.7118	12.52706	0.09233925	8.226909
3.1	28.13398	13.37116	0.09834173	8.638772
3.2	27.58444	14.25565	0.1068155	9.037986
3.3	27.03201	15.17959	0.1176257	9.431396
3.4	26.52066	16.14314	0.1285284	9.826479
3.5	25.98157	17.14766	0.1396472	10.22478
3.6	25.47784	18.19564	0.2803106	10.62682
3.7	25.01869	19.28534	0.6263124	11.01592
3.8	24.57695	20.41067	1.062217	11.38008
3.9	24.17597	21.56469	1.50798	11.69626
4	23.84927	22.7401	1.975155	11.95526
4.1	23.60688	23.93102	2.492736	12.18152
4.2	23.36516	25.13163	3.01207	12.37804
4.3	23.19234	26.33683	3.47762	12.54141
4.4	23.04645	27.5435	3.862652	12.67578
4.5	22.91641	28.75056	4.154741	12.78772
4.6	22.80342	29.95867	4.348753	12.8839
4.7	22.72427	31.17005	4.442933	12.97582
4.8	22.61288	32.38914	4.405784	13.06981
4.9	22.51324	33.6215	4.202093	13.16068
5	22.40145	34.87118	3.887276	13.25569
5.1	22.24455	36.13987	3.604827	13.38593
5.2	22.06473	37.42901	3.359431	13.54184
5.3	21.87784	38.73928	3.089781	13.70843
5.4	21.66368	40.07168	2.791672	13.8904
5.5	21.44246	41.42724	2.480502	14.0908
5.6	21.21084	42.80674	2.16902	14.31013
5.7	20.95155	44.21079	1.860374	14.54678
5.8	20.67856	45.63987	1.552794	14.79917
5.9	20.38404	47.09436	1.243365	15.06572
6	20.08722	48.57456	0.9326065	15.34546
6.1	19.78845	50.08068	0.6230755	15.63758
6.2	19.45955	51.61287	0.3163924	15.94091
6.3	19.13996	53.1712	0.01329375	16.25447
6.4	18.81231	54.75568	-0.2854863	16.57699
6.5	18.47458	56.36607	-0.5755898	16.90007
6.6	18.13005	58.001	-0.7542354	17.22573
6.7	17.80302	59.65911	-0.6976135	17.54482
6.8	17.5153	61.33887	-0.3810827	17.86014
6.9	17.23699	63.03868	-0.02992425	18.1524
7	16.98292	64.75653	0.1389758	18.4126
7.1	16.7353	66.49123	0.1102641	18.64956
7.2	16.51896	68.24217	0.03343536	18.88247
7.3	16.28155	70.00826	0.09610643	19.12646
7.4	16.07198	71.79037	0.1885061	19.36405
7.5	15.86085	73.58692	0.1320189	19.56908
7.6	15.63897	75.39553	0.1710462	19.77396
7.7	15.46898	77.21318	0.5075555	19.967
7.8	15.33314	79.03343	1.188999	20.12546
7.9	15.21696	80.84776	2.113354	20.26085
8	15.1172	82.64899	2.915364	20.35278
8.1	15.08333	84.43449	3.425885	20.4048
8.2	15.07742	86.20632	3.660986	20.42686
8.3	15.04748	87.96645	3.786584	20.44822
8.4	15.04092	89.71664	3.831371	20.46417
8.5	15.02234	91.4583	3.803618	20.47683
8.6	15.00795	93.19291	3.749501	20.4934
8.7	14.99086	94.92185	3.669603	20.51096
8.8	14.974	96.64641	3.581841	20.53352
8.9	14.9365	98.36796	3.487414	20.56001
9	14.91939	100.0878	3.388905	20.59082
9.1	14.87352	101.807	3.289147	20.62617
9.2	14.84593	103.5266	3.187956	20.66571
9.3	14.78553	105.2472	3.087068	20.7096
9.4	14.76502	106.9693	2.986031	20.75713
9.5	14.69998	108.6932	2.885786	20.80826
9.6	14.65063	110.4192	2.786215	20.86253
9.7	14.60907	112.1471	2.687916	20.92012
9.8	14.52472	113.8771	2.590855	20.98081
9.9	14.48518	115.609	2.494861	21.04457
10	14.43626	117.3425	2.399909	21.11135
10.1	14.35575	119.0775	2.305445	21.18081
10.2	14.28645	120.8134	2.211784	21.25278
10.3	14.20822	122.5503	2.11865	21.32678
10.4	14.15311	124.2878	2.027663	21.40273
10.5	14.06071	126.0259	1.949168	21.4734
10.6	13.98327	127.7629	2.047935	21.56199
10.7	13.91811	129.4998	2.127071	21.6317
10.8	13.85193	131.2373	2.101059	21.69077
10.9	13.8189	132.9773	2.082955	21.7553
11	13.74849	134.7218	2.062148	21.81741
11.1	13.73195	136.473	2.020179	21.87668
11.2	13.62826	138.2336	1.965619	21.93627
11.3	13.58969	140.0063	1.894676	21.99647
11.4	13.52827	141.794	1.804817	22.05903
11.5	13.4732	143.5998	1.692227	22.12455
11.6	13.41677	145.4262	1.55638	22.19469
11.7	13.33944	147.2757	1.397619	22.2703
11.8	13.24328	149.1503	1.215001	22.35206
11.9	13.16448	151.0518	1.012696	22.4363
12	13.08898	152.9818	0.9240552	22.52603
12.1	12.97579	154.9471	1.167049	22.61596
12.2	12.941	156.9547	1.801775	22.67999
12.3	12.91018	159.0063	2.760424	22.71632
12.4	12.93018	161.0952	3.727332	22.71725
12.5	12.96024	163.2092	4.442754	22.68443
12.6	13.03545	165.3385	4.777222	22.6167
12.7	13.11784	167.4773	4.84942	22.53596
12.8	13.17335	169.6241	4.817577	22.46526
12.9	13.2355	171.7781	4.673397	22.39338
13	13.30691	173.9391	4.485922	22.33506
13.1	13.31793	176.1071	4.25562	22.28431
13.2	13.40024	178.2819	4.006837	22.24691
13.3	13.37024	180.4638	3.742349	22.22054
13.4	13.3907	182.6528	3.468781	22.20691
13.5	13.40996	184.849	3.190566	22.20548
13.6	13.3739	187.0523	2.907955	22.21617
13.7	13.38601	189.2628	2.624852	22.239
13.8	13.30153	191.4804	2.340474	22.27335
13.9	13.31185	193.7051	2.05724	22.31915
14	13.23724	195.9368	1.774915	22.37584
14.1	13.15578	198.1753	1.494685	22.44302
14.2	13.09285	200.4204	1.216867	22.52038
14.3	13.01756	202.672	0.9419293	22.60726
14.4	12.90746	204.9297	0.6705179	22.70326
14.5	12.81581	207.193	0.405243	22.80247
14.6	12.70006	209.4592	0.3072809	22.91122
14.7	12.61882	211.7238	0.5733263	23.01817
14.8	12.53565	213.9763	1.268975	23.08735
14.9	12.53026	216.1991	2.4289	23.12432
15	12.52484	218.3717	3.666147	23.11462
15.1	12.62305	220.4786	4.72789	23.06449
15.2	12.69738	222.5159	5.468803	22.98108
15.3	12.81828	224.4918	5.800883	22.86041
15.4	12.90184	226.417	5.893097	22.73595
15.5	13.01618	228.2993	5.839586	22.61178
15.6	13.14056	230.1443	5.689855	22.49545
15.7	13.21561	231.9554	5.493097	22.39068
15.8	13.31755	233.7349	5.251595	22.29573
15.9	13.41546	235.4846	4.992393	22.21539
16	13.45839	237.2055	4.714225	22.14707
16.1	13.50129	238.8983	4.428424	22.09337
16.2	13.53577	240.5637	4.135194	22.05282
16.3	13.54018	242.202	3.838732	22.02626
